size(bytes) Cmemmove(GB/s) Dmemmove(GB/s)
1 0.27017 0.273627
2 0.435739 0.435643
3 0.657846 0.657902
4 1.01219 1.01175
5 1.26536 1.26517
6 1.51802 1.51714
7 1.77134 1.77058
8 2.02483 2.02465
9 2.27697 2.2773
10 2.53093 2.53082
11 2.78356 2.78293
12 3.03629 3.03681
13 3.28964 3.28873
14 3.54325 3.54341
15 3.79546 3.7946
16 5.26247 5.2611
17 5.59349 5.59125
18 5.92066 5.91992
19 6.25097 6.24645
20 6.58103 6.5789
21 6.90598 6.90456
22 7.23509 7.23475
23 7.56497 7.55817
24 7.8955 7.89308
25 8.2228 8.22088
26 8.55169 8.55153
27 8.87855 8.87524
28 9.21466 9.20697
29 9.54203 9.54052
30 9.86583 9.86836
31 10.2025 10.2033
32 10.5334 10.5329
33 8.35132 8.35149
34 8.60413 8.60287
35 8.85972 8.85947
36 9.11271 9.11405
37 9.36489 9.36345
38 9.61555 9.61583
39 9.86984 9.86758
40 10.1242 10.1257
41 10.3774 10.3774
42 10.6301 10.6293
43 10.8798 10.8817
44 11.1391 11.1372
45 11.392 11.3917
46 11.6436 11.643
47 11.8965 11.8969
48 12.1449 12.1446
49 12.4002 12.4007
50 12.6578 12.6579
51 12.9074 12.9069
52 13.1646 13.1638
53 13.4206 13.4184
54 13.6645 13.6656
55 13.9161 13.9175
56 14.1744 14.1771
57 14.4365 14.4357
58 14.6785 14.6768
59 14.9279 14.9284
60 15.1899 15.1895
61 15.4338 15.4341
62 15.6875 15.686
63 15.9532 15.9517
64 16.1979 16.2
65 11.8793 11.8817
66 12.0607 12.061
67 12.2433 12.2436
68 12.429 12.4306
69 12.6113 12.6125
70 12.7963 12.7967
71 12.9865 12.9822
72 13.1663 13.1666
73 13.3513 13.3518
74 13.5213 13.5196
75 13.7174 13.7184
76 13.9003 13.9001
77 14.0863 14.0637
78 14.259 14.2604
79 14.4369 14.4366
80 14.6147 14.6164
81 14.8017 14.802
82 14.9933 14.9936
83 15.1642 15.1657
84 15.3673 15.3475
85 15.5495 15.5501
86 15.7128 15.7099
87 15.9025 15.9016
88 16.0979 16.0989
89 16.7542 16.7533
90 16.9253 16.9293
91 17.1251 17.1244
92 17.3102 17.309
93 17.5058 17.5017
94 17.6886 17.6885
95 17.8833 17.8832
96 18.0624 18.0638
97 18.2588 18.2585
98 18.4489 18.4352
99 18.6204 18.6301
100 18.8284 18.8307
101 19.003 18.9998
102 19.1907 19.1863
103 19.3644 19.2912
104 19.569 19.5684
105 20.259 20.2988
106 20.5056 20.5049
107 20.7113 20.7116
108 20.918 20.9058
109 21.0845 21.0871
110 21.3018 21.3013
111 21.4738 21.4682
112 21.6921 21.6972
113 21.8815 21.8779
114 22.0468 22.0558
115 22.2529 22.2509
116 22.4419 22.4423
117 22.6294 22.6332
118 22.8225 22.8285
119 23.0336 23.0338
120 23.2394 23.2341
121 23.4372 23.4312
122 23.6029 23.6046
123 23.8217 23.8183
124 23.9822 23.9594
125 24.1962 24.1984
126 24.3735 24.3737
127 24.5963 24.5858
128 24.7781 24.7754
129 24.9514 24.9513
130 25.1773 25.138
131 25.3717 25.3723
132 25.5599 25.5614
133 25.7497 25.7375
134 25.9363 25.9398
135 26.1342 26.1386
136 26.3207 26.3336
137 26.5287 26.5216
138 26.7336 26.7369
139 26.8932 26.8593
140 27.08 27.0776
141 27.2906 27.2927
142 27.4964 27.5036
143 27.6507 27.6465
144 27.8697 27.8716
145 28.0971 28.0903
146 28.2493 28.2391
147 28.4772 28.4807
148 28.6309 28.63
149 28.8726 28.8617
150 29.0229 29.0289
151 29.1955 29.1922
152 29.4248 29.4336
153 21.3582 21.3569
154 21.4798 21.4786
155 21.655 21.6473
156 21.7766 21.7808
157 21.9103 21.9083
158 22.0385 22.047
159 22.1901 22.1754
160 22.3459 22.343
161 22.4823 22.4873
162 22.6188 22.6235
163 22.7642 22.7613
164 22.9024 22.8847
165 23.0468 23.0478
166 23.1852 23.1799
167 23.3081 23.3121
168 23.4701 23.4651
169 14.4688 14.4681
170 14.5623 14.5594
171 14.6412 14.6382
172 14.7362 14.7365
173 14.8168 14.8156
174 14.9119 14.9034
175 14.9891 14.9886
176 15.0497 15.0492
177 15.1548 15.1534
178 15.2531 15.2542
179 15.3368 15.3377
180 15.4218 15.4237
181 15.5085 15.5085
182 15.5964 15.5961
183 15.6801 15.6835
184 15.7548 15.7544
185 15.8415 15.842
186 15.9321 15.9323
187 15.9505 15.9095
188 16.0991 16.0957
189 16.18 16.1664
190 16.2704 16.2694
191 16.3543 16.3459
192 16.4139 16.4112
193 16.5102 16.5135
194 16.6106 16.6147
195 16.687 16.6794
196 16.7782 16.7823
197 16.8594 16.8656
198 16.9608 16.9531
199 17.0371 17.0394
200 17.1179 17.1198
201 17.2022 17.1928
202 17.2984 17.3006
203 17.3912 17.3888
204 17.4773 17.4779
205 17.5573 17.5572
206 17.641 17.6429
207 17.722 17.7239
208 17.7849 17.785
209 17.897 17.8946
210 17.9838 17.9847
211 18.0643 18.0673
212 18.1588 18.1524
213 18.2437 18.2416
214 18.3271 18.3286
215 18.427 18.4262
216 18.5124 18.512
217 23.6556 23.7018
218 23.842 23.8442
219 23.9313 23.9325
220 24.0472 24.0508
221 24.1788 24.1708
222 24.267 24.2654
223 24.384 24.3722
224 24.4212 24.3809
225 22.5908 22.5867
226 23.0472 23.049
227 23.5118 23.513
228 23.9932 23.9963
229 24.4485 24.4482
230 24.9301 24.9163
231 25.4032 25.4052
232 25.3607 25.369
233 25.8348 25.8484
234 26.3557 26.3553
235 26.8176 26.8156
236 27.3475 27.3335
237 27.8111 27.8168
238 28.2825 28.2811
239 28.8148 28.8127
240 29.2159 29.2131
241 29.9271 29.9274
242 30.4104 30.4013
243 30.914 30.8827
244 31.477 31.4756
245 31.9525 31.9672
246 32.4707 32.469
247 33.0551 33.0585
248 33.0011 32.9975
249 33.1132 33.114
250 33.2327 33.2187
251 33.404 33.3484
252 33.5227 33.523
253 33.6244 33.63
254 33.8134 33.7431
255 33.954 33.9602
256 33.8794 33.881
500 40.958 40.9291
700 43.6678 43.6734
3434 33.9353 33.9692
7128 34.9153 34.9189
13908 35.4177 35.3747
16343 35.3719 35.3671
27897 35.7075 35.7012
32344 35.7295 35.7165
46830 33.1045 33.0923
64349 33.273 33.2352
ldc2 -O3 -m64 benchmarks.d Dmemset.d
./benchmarks
